"Time (s)","Linear Acceleration x (m/s^2)","Linear Acceleration y (m/s^2)","Linear Acceleration z (m/s^2)","Absolute acceleration (m/s^2)"
9.343546300E-2,3.000000026E-3,1.389999986E-1,-7.000000216E-3,1.392084753E-1
9.841696400E-2,3.000000026E-3,1.430000067E-1,-8.000000380E-3,1.432550240E-1
1.033981950E-1,3.000000026E-3,1.289999932E-1,-7.000000216E-3,1.292246039E-1
1.083795020E-1,3.000000026E-3,1.150000021E-1,-6.000000052E-3,1.151954881E-1
1.133609810E-1,3.000000026E-3,9.799999744E-2,-6.000000052E-3,9.822932097E-2
1.183422140E-1,4.000000190E-3,9.799999744E-2,-7.000000216E-3,9.833107089E-2
1.233235430E-1,7.000000216E-3,1.270000041E-1,-9.999999776E-3,1.275852696E-1
1.283047760E-1,9.999999776E-3,1.449999958E-1,-1.200000010E-2,1.458389481E-1
1.332862360E-1,1.400000043E-2,1.979999989E-1,-1.700000092E-2,1.992209819E-1
1.382675420E-1,1.799999923E-2,2.540000081E-1,-2.199999988E-2,2.555856101E-1
1.432487720E-1,1.899999939E-2,3.199999928E-1,-2.700000070E-2,3.216986096E-1
1.482302320E-1,1.799999923E-2,3.610000014E-1,-2.999999933E-2,3.626913301E-1
1.532115510E-1,1.600000076E-2,3.829999864E-1,-2.999999933E-2,3.845061632E-1
1.581927810E-1,1.600000076E-2,4.000000060E-1,-2.700000070E-2,4.012293669E-1
1.631742510E-1,1.499999966E-2,4.129999876E-1,-2.300000004E-2,4.139118140E-1
1.681555610E-1,1.499999966E-2,4.289999902E-1,-1.899999939E-2,4.296824311E-1
1.731370200E-1,-4.500000179E-2,4.839999974E-1,4.500000179E-2,4.881659531E-1
1.781182860E-1,-1.909999996E-1,5.630000234E-1,1.059999987E-1,6.038923960E-1
1.830995920E-1,-3.869999945E-1,6.660000086E-1,1.459999979E-1,7.839904378E-1
1.880810530E-1,-6.140000224E-1,7.689999938E-1,1.770000011E-1,9.998429969E-1
1.930622670E-1,-8.080000281E-1,8.190000057E-1,1.990000010E-1,1.167572719E0
1.980435730E-1,-9.800000191E-1,8.769999743E-1,2.529999912E-1,1.339230371E0
2.030250200E-1,-1.187999964E0,9.779999852E-1,3.179999888E-1,1.571289877E0
2.080062530E-1,-1.439000010E0,1.075999975E0,3.499999940E-1,1.830572854E0
2.129875590E-1,-1.690999985E0,1.184999943E0,3.440000117E-1,2.093332707E0
2.179690630E-1,-1.899000049E0,1.291000009E0,3.149999976E-1,2.317780664E0
2.229503730E-1,-2.062000036E0,1.419000030E0,3.059999943E-1,2.521713947E0
2.279316040E-1,-2.237999916E0,1.593000054E0,3.129999936E-1,2.764825816E0
2.329130920E-1,-2.443000078E0,1.771000028E0,3.840000033E-1,3.041734124E0
2.378944020E-1,-2.726000071E0,1.981999993E0,4.779999852E-1,3.404098169E0
2.428756370E-1,-3.095999956E0,2.224999905E0,5.429999828E-1,3.851063397E0
2.478570960E-1,-3.536999941E0,2.453000069E0,5.950000286E-1,4.345296647E0
2.528384060E-1,-4.063000202E0,2.665999889E0,7.289999723E-1,4.913956350E0
2.578196710E-1,-4.662000179E0,2.878000021E0,8.550000191E-1,5.545101877E0
2.628011300E-1,-5.209000111E0,2.986999989E0,9.399999976E-1,6.077783402E0
2.677824400E-1,-5.618999958E0,2.986999989E0,1.011999965E0,6.443560614E0
2.727636520E-1,-5.864999771E0,2.911000013E0,1.139999986E0,6.646182616E0
2.777451110E-1,-5.813000202E0,2.766999960E0,1.337000012E0,6.575319700E0
2.827263630E-1,-5.755000114E0,2.796000004E0,1.720999956E0,6.625668509E0
2.877076690E-1,-1.468000054E0,3.611000061E0,5.389999747E-1,3.935081521E0
2.926891300E-1,-1.722000003E0,3.819000006E0,3.889999986E-1,4.207299140E0
2.976704640E-1,-1.884999990E0,3.900000095E0,3.280000091E-1,4.344054525E0
3.026516950E-1,-2.111999989E0,3.772000074E0,2.619999945E-1,4.330955150E0
3.076331540E-1,-2.243999958E0,3.532999992E0,3.160000145E-1,4.197318283E0
3.126144500E-1,-2.381999969E0,3.292999983E0,3.319999874E-1,4.077744074E0
3.175956810E-1,-2.698999882E0,3.088999987E0,3.670000136E-1,4.118398996E0
3.225771530E-1,-3.148000002E0,2.861000061E0,3.470000029E-1,4.267977784E0
3.275584630E-1,-3.651000023E0,2.617000103E0,3.449999988E-1,4.505276429E0
3.325399230E-1,-4.251999855E0,2.430999994E0,3.759999871E-1,4.912294752E0
3.375211380E-1,-4.919000149E0,2.292000055E0,3.000000119E-1,5.435055356E0
3.425024430E-1,-5.519000053E0,2.158999920E0,2.649999857E-1,5.932189076E0
3.474839280E-1,-6.085000038E0,2.049000025E0,2.329999954E-1,6.424944791E0
3.524651610E-1,-6.525000095E0,1.940999985E0,1.679999977E-1,6.809649858E0
3.574464660E-1,-6.771999836E0,1.740000010E0,1.600000076E-2,6.991983825E0
3.624279040E-1,-6.790999889E0,1.473000050E0,-1.539999992E-1,6.950620450E0
3.674091370E-1,-6.540999889E0,1.100000024E0,-3.510000110E-1,6.642129223E0
3.723904380E-1,-6.094999790E0,6.800000072E-1,-5.210000277E-1,6.154905644E0
3.773716710E-1,-5.548999786E0,3.050000072E-1,-6.269999743E-1,5.592633780E0
3.823532080E-1,-5.026000023E0,-6.000000052E-3,-6.830000281E-1,5.072198859E0
3.873344400E-1,-4.593999863E0,-3.030000031E-1,-6.470000148E-1,4.649220661E0
3.923159000E-1,-4.162000179E0,-7.009999752E-1,-5.059999824E-1,4.250844909E0
3.972971470E-1,-3.928999901E0,-9.689999819E-1,-6.370000243E-1,4.096555897E0
4.022784520E-1,-3.305999994E0,-7.720000148E-1,-7.839999795E-1,3.484289878E0
4.072599140E-1,-2.607000113E0,-6.809999943E-1,-8.190000057E-1,2.816198073E0
4.122411700E-1,-1.802999973E0,-6.890000105E-1,-5.669999719E-1,2.011720380E0
4.172224750E-1,-1.060999990E0,-7.179999948E-1,-2.109999955E-1,1.298370505E0
4.222039370E-1,-4.629999995E-1,-6.840000153E-1,1.239999980E-1,8.352251313E-1
4.271852470E-1,-5.000000075E-2,-5.569999814E-1,3.840000033E-1,6.783840962E-1
4.321664770E-1,2.310000062E-1,-4.819999933E-1,6.340000033E-1,8.292412198E-1
4.371477080E-1,4.269999862E-1,-5.630000234E-1,8.790000081E-1,1.127802744E0
4.421291680E-1,5.730000138E-1,-7.120000124E-1,1.210999966E0,1.517166421E0
4.471104770E-1,6.209999919E-1,-8.090000153E-1,1.547000051E0,1.852925031E0
4.520919320E-1,6.269999743E-1,-8.700000048E-1,1.942999959E0,2.219296694E0
4.570732420E-1,7.220000029E-1,-9.549999833E-1,2.186000109E0,2.492369444E0
4.620546780E-1,1.008999944E0,-1.152999997E0,2.273999929E0,2.742000284E0
4.670359110E-1,1.567000031E0,-1.570000052E0,2.279999971E0,3.181004422E0
4.720171420E-1,2.437000036E0,-2.299000025E0,2.055000067E0,3.930317489E0
4.769984760E-1,3.687000036E0,-3.276999950E0,1.667000055E0,5.206878828E0
4.819799370E-1,5.122000217E0,-4.189000130E0,1.271000028E0,6.737807461E0
4.869612470E-1,6.400000095E0,-4.596000195E0,1.185999990E0,7.968049635E0
4.919424780E-1,7.407999992E0,-3.835000038E0,3.479999900E-1,8.349059418E0
4.969239370E-1,7.764999866E0,-2.065999985E0,-1.157999992E0,8.118161297E0
5.019052470E-1,7.339000225E0,-3.700000048E-1,-2.619999886E0,7.801424467E0
5.068864680E-1,6.302000046E0,1.001999974E0,-3.831000090E0,7.442833480E0
5.118679270E-1,4.932000160E0,1.855000019E0,-4.789000034E0,7.120405324E0
5.168492370E-1,3.296000004E0,2.273000002E0,-5.218999863E0,6.577849542E0
5.218306960E-1,1.470999956E0,2.494999886E0,-5.256000042E0,6.001200025E0
5.268119290E-1,-2.399999946E-1,2.480999947E0,-5.074999809E0,5.654076741E0
5.317932220E-1,-1.582999945E0,2.209000111E0,-4.651999950E0,5.387640843E0
5.367746830E-1,-2.538000107E0,1.651000023E0,-3.831000090E0,4.883012114E0
5.417559160E-1,-3.049999952E0,7.940000296E-1,-3.286000013E0,4.553101343E0
5.467372220E-1,-3.167999983E0,-1.990000010E-1,-3.075999975E0,4.420135828E0
5.517186840E-1,-2.947000027E0,-1.241000056E0,-2.881999969E0,4.304743212E0
5.566999880E-1,-2.548000097E0,-2.663000107E0,-2.594000101E0,4.506962457E0
5.616812190E-1,-2.016999960E0,-3.700000048E0,-2.857000113E0,5.091241384E0
5.666624500E-1,-1.233999968E0,-4.600999832E0,-2.926000118E0,5.590476909E0
5.716439040E-1,-2.310000062E-1,-5.532000065E0,-3.098000050E0,6.344603221E0
5.766252140E-1,8.820000291E-1,-6.433000088E0,-3.221999884E0,7.248634177E0
5.816066690E-1,1.901999950E0,-7.310999870E0,-3.132999897E0,8.178264563E0
5.865879780E-1,2.776000023E0,-8.345000267E0,-3.035000086E0,9.303570879E0
5.915694380E-1,3.380000114E0,-9.277000427E0,-2.984999895E0,1.031490970E1
5.965506470E-1,3.628999949E0,-9.845999718E0,-2.627000093E0,1.081732317E1
6.015318770E-1,3.546999931E0,-1.004899979E1,-2.102999926E0,1.086214592E1
6.065131830E-1,3.211999893E0,-1.011100006E1,-1.597000003E0,1.072845164E1
6.114946640E-1,2.736000061E0,-1.017000008E1,-1.090999961E0,1.058795914E1
6.164759730E-1,2.049000025E0,-1.035000038E1,-4.539999962E-1,1.056063563E1
6.214571710E-1,1.289999962E0,-1.064799976E1,2.280000001E-1,1.072827959E1
6.264386310E-1,9.240000248E-1,-1.105500031E1,9.120000005E-1,1.113097263E1
6.314199400E-1,1.513000011E0,-1.184599972E1,1.258000016E0,1.200830722E1
6.364014040E-1,2.976000071E0,-1.292599964E1,1.258000016E0,1.332368595E1
6.413826370E-1,4.856999874E0,-1.389700031E1,1.052000046E0,1.475885394E1
6.463639280E-1,7.008999825E0,-1.454699993E1,7.549999952E-1,1.616512637E1
6.513453900E-1,9.371999741E0,-1.490100002E1,2.980000079E-1,1.760576567E1
6.563266180E-1,1.162699986E1,-1.480099964E1,-1.040000021E-1,1.882199596E1
6.613079230E-1,1.346000004E1,-1.427400017E1,-2.150000036E-1,1.962052259E1
6.662893850E-1,1.478899956E1,-1.347099972E1,-1.620000005E-1,2.000521395E1
6.712707090E-1,1.575699997E1,-1.259300041E1,-4.699999839E-2,2.017099195E1
6.762519390E-1,1.642499924E1,-1.163500023E1,3.190000057E-1,2.013096101E1
6.812333610E-1,1.660000038E1,-1.060400009E1,9.070000052E-1,1.971870887E1
6.862146710E-1,1.633900070E1,-9.527999878E0,1.672999978E0,1.898801344E1
6.911959020E-1,1.570699978E1,-8.482999802E0,2.523000002E0,1.802877302E1
6.961773320E-1,1.481099987E1,-7.524000168E0,3.269000053E0,1.693111506E1
7.011585650E-1,1.398299980E1,-6.801000118E0,3.792999983E0,1.600514714E1
7.061401010E-1,1.342099953E1,-6.375000000E0,4.067999840E0,1.540494972E1
7.111213480E-1,1.310200024E1,-6.159999847E0,4.275000095E0,1.509581512E1
7.161026560E-1,1.281499958E1,-5.986000061E0,4.147999763E0,1.473982066E1
7.210838870E-1,1.233199978E1,-5.808000088E0,3.480999947E0,1.406870442E1
7.260653460E-1,1.178299999E1,-5.685999870E0,2.698999882E0,1.335867822E1
7.310466560E-1,1.135499954E1,-5.657000065E0,2.002000093E0,1.284311756E1
7.360279020E-1,1.113199997E1,-5.695000172E0,1.302000046E0,1.257178008E1
7.410093610E-1,1.110799980E1,-5.790999889E0,6.309999824E-1,1.254278678E1
7.459906710E-1,1.126200008E1,-5.875000000E0,-1.129999980E-1,1.270279654E1
7.509721150E-1,1.142599964E1,-5.935999870E0,-7.049999833E-1,1.289521567E1
7.559533480E-1,1.169200039E1,-6.012000084E0,-1.146000028E0,1.319698201E1
7.609346640E-1,1.216199970E1,-6.170000076E0,-1.519000053E0,1.372189852E1
7.659158970E-1,1.285700035E1,-6.370999813E0,-1.860000014E0,1.446899087E1
7.708973560E-1,1.361200047E1,-6.515999794E0,-2.095999956E0,1.523607646E1
7.758786710E-1,1.638999939E1,-7.513000011E0,-4.192999840E0,1.851103716E1
7.808601310E-1,1.812999916E1,-8.031999588E0,-7.165999889E0,2.108462571E1
7.858414400E-1,1.767799950E1,-7.748000145E0,-7.880000114E0,2.084796331E1
7.908226610E-1,1.626899910E1,-7.328999996E0,-6.684000015E0,1.905440707E1
7.958041210E-1,1.437199974E1,-6.901999950E0,-4.508999825E0,1.656873741E1
8.007853630E-1,1.232999992E1,-6.514999866E0,-1.804999948E0,1.406172629E1
8.057666690E-1,1.076299953E1,-6.300000191E0,7.839999795E-1,1.249587201E1
8.107481310E-1,1.053999996E1,-6.098999977E0,3.002000093E0,1.254198567E1
8.157293340E-1,1.150000000E1,-6.094999790E0,4.504000187E0,1.377261922E1
8.207106400E-1,1.275199986E1,-6.223999977E0,5.125999928E0,1.508733082E1
8.256921020E-1,1.394600010E1,-6.250000000E0,5.380000114E0,1.620178447E1
8.306734300E-1,1.474199963E1,-6.165999889E0,5.383999825E0,1.686219327E1
8.356546610E-1,1.504100037E1,-6.087999821E0,5.017000198E0,1.698427875E1
8.406361020E-1,1.470899963E1,-6.117000103E0,3.941999912E0,1.641071978E1
8.456174110E-1,1.388599968E1,-6.324999809E0,2.776000023E0,1.550911944E1
8.505986420E-1,1.284899998E1,-6.622000217E0,1.980000019E0,1.458999957E1
8.555801160E-1,1.166600037E1,-6.920000076E0,1.690999985E0,1.366899581E1
8.605614250E-1,1.050599957E1,-7.127999783E0,1.674999952E0,1.280585931E1
8.655428850E-1,9.421999931E0,-7.239999771E0,1.621999979E0,1.199260453E1
8.705241090E-1,8.494000435E0,-7.327000141E0,1.409000039E0,1.130567360E1
8.755054140E-1,7.866000175E0,-7.323999882E0,1.021000028E0,1.079617405E1
8.804868660E-1,7.494999886E0,-7.059999943E0,6.549999714E-1,1.031734692E1
8.854681760E-1,7.334000111E0,-6.461999893E0,3.339999914E-1,9.780416977E0
8.904494060E-1,7.230000019E0,-5.736000061E0,1.580000073E-1,9.230360826E0
8.954308610E-1,7.100999832E0,-5.208000183E0,3.549999893E-1,8.813256465E0
9.004121710E-1,6.833000183E0,-5.026999950E0,8.909999728E-1,8.529624901E0
9.053934020E-1,6.452000141E0,-5.014999866E0,1.754999995E0,8.358143003E0
9.103748560E-1,6.074999809E0,-5.034999847E0,2.815000057E0,8.377414367E0
9.153560890E-1,5.664999962E0,-5.098000050E0,3.960000038E0,8.588563872E0
9.203374050E-1,5.613999844E0,-5.243000031E0,4.934000015E0,9.129644008E0
9.253188660E-1,5.817999840E0,-5.459000111E0,5.932000160E0,9.941751870E0
9.303001760E-1,6.065999985E0,-5.624000072E0,6.778999805E0,1.069488527E1
9.352814120E-1,6.197999954E0,-5.802999973E0,7.485000134E0,1.131880025E1
9.402628710E-1,6.284999847E0,-6.041999817E0,7.925000191E0,1.178187646E1
9.452441810E-1,6.361999989E0,-6.265999794E0,8.305000305E0,1.219470489E1
9.502254210E-1,6.291999817E0,-6.298999786E0,8.680000305E0,1.243418937E1
9.552068800E-1,6.046000004E0,-6.257999897E0,8.791999817E0,1.236996118E1
9.601882330E-1,5.631000042E0,-6.335999966E0,8.611000061E0,1.208314442E1
9.651696920E-1,5.172999859E0,-6.546000004E0,8.473999977E0,1.189196028E1
9.701509250E-1,4.789000034E0,-6.754000187E0,8.645999908E0,1.197097967E1
9.751322170E-1,4.554999828E0,-7.072000027E0,8.710000038E0,1.210889378E1
9.801136780E-1,4.409999847E0,-7.539999962E0,8.611000061E0,1.226576619E1
9.850949980E-1,4.288000107E0,-7.843999863E0,8.532999992E0,1.235829145E1
9.900762290E-1,4.271999836E0,-7.979000092E0,8.293999672E0,1.227619060E1
9.950576880E-1,4.256999969E0,-7.368000031E0,7.552999973E0,1.137792959E1
1.000038988E0,5.567999840E0,-3.322000027E0,1.325999975E0,6.617898634E0
1.005020219E0,5.922999859E0,-3.341000080E0,1.192999959E0,6.904162351E0
1.010001679E0,6.300000191E0,-3.588000059E0,1.128999949E0,7.337464665E0
1.014982973E0,6.639999866E0,-3.989000082E0,9.459999800E-1,7.803629658E0
1.019964433E0,6.716000080E0,-4.323999882E0,8.450000286E-1,8.032163912E0
1.024945666E0,6.474999905E0,-4.532000065E0,8.320000172E-1,7.947129820E0
1.029926991E0,5.987999916E0,-4.657999992E0,9.940000176E-1,7.651218397E0
1.034908224E0,5.471000195E0,-4.855000019E0,1.333999991E0,7.435215148E0
1.039889684E0,5.149000168E0,-5.232999802E0,1.766000032E0,7.550844043E0
1.044870993E0,4.958000183E0,-5.727000237E0,2.285000086E0,7.912112418E0
1.049852224E0,4.841000080E0,-6.243000031E0,2.813999891E0,8.386234348E0
1.054833765E0,4.756999969E0,-6.808000088E0,3.177000046E0,8.892201257E0
1.059814997E0,4.577000141E0,-7.262000084E0,3.255000114E0,9.180446681E0
1.064796462E0,4.368999958E0,-7.708000183E0,3.075000048E0,9.378542144E0
1.069777695E0,4.152999878E0,-8.196999550E0,2.783999920E0,9.601503276E0
1.074759000E0,3.947999954E0,-8.762000084E0,2.447000027E0,9.917013575E0
1.079740481E0,3.802000046E0,-9.241000175E0,2.214999914E0,1.023511178E1
1.084721791E0,3.637000084E0,-9.619999886E0,2.107000113E0,1.049817207E1
1.089703026E0,3.453000069E0,-9.928000450E0,2.096999884E0,1.071847988E1
1.094684486E0,3.280999899E0,-1.031299973E1,2.230999947E0,1.104989975E1
1.099665796E0,3.112999916E0,-1.070400047E1,2.483999968E0,1.142088659E1
1.104647064E0,2.905999899E0,-1.103199959E1,2.901000023E0,1.177139123E1
1.109628524E0,2.723999977E0,-1.137399960E1,3.483000040E0,1.220325088E1
1.114609834E0,2.615000010E0,-1.185099983E1,4.164999962E0,1.283088644E1
1.119591308E0,2.378999949E0,-1.234799957E1,4.828000069E0,1.347005267E1
1.124572541E0,1.930999994E0,-1.282600021E1,5.269999981E0,1.400028365E1
1.129553804E0,1.256999969E0,-1.314099979E1,5.508999825E0,1.430437009E1
1.134535037E0,4.749999940E-1,-1.331299973E1,5.605000019E0,1.445259879E1
1.139516480E0,-3.009999990E-1,-1.345300007E1,5.593999863E0,1.457280503E1
1.144497790E0,-9.499999881E-1,-1.372399998E1,5.572000027E0,1.484243442E1
1.149479249E0,-1.501000047E0,-1.405500031E1,5.527999878E0,1.517744436E1
1.154460473E0,-1.955999970E0,-1.432199955E1,5.422999859E0,1.543873487E1
1.159441779E0,-2.405999899E0,-1.440499973E1,5.250999928E0,1.551985351E1
1.164423192E0,-2.759999990E0,-1.437399960E1,5.013999939E0,1.547157586E1
1.169404425E0,-3.101999998E0,-1.431599998E1,4.777999878E0,1.540777539E1
1.174385731E0,-3.371000051E0,-1.428100014E1,4.714000225E0,1.541208631E1
1.179367206E0,-3.559999943E0,-1.447000027E1,4.859000206E0,1.567368464E1
1.184348516E0,-3.934000015E0,-1.474499989E1,5.033999920E0,1.606961521E1
1.189329747E0,-4.665999889E0,-1.503100014E1,5.294000149E0,1.660508831E1
1.194311206E0,-5.873000145E0,-1.515600014E1,5.381000042E0,1.712167142E1
1.199292516E0,-7.488999844E0,-1.507299995E1,5.341000080E0,1.765804995E1
1.204273976E0,-9.215000153E0,-1.473900032E1,5.256000042E0,1.815984292E1
1.209255213E0,-1.093999958E1,-1.433100033E1,5.176000118E0,1.875772210E1
1.214236519E0,-1.254199982E1,-1.380500031E1,5.020999908E0,1.931554382E1
1.219218005E0,-1.404800034E1,-1.302200031E1,4.886000156E0,1.976845475E1
1.224199237E0,-1.515299988E1,-1.172000027E1,4.738999844E0,1.973397910E1
1.229180514E0,-1.550500011E1,-1.040699959E1,4.407999992E0,1.918700427E1
1.234161976E0,-1.524699974E1,-9.309000015E0,3.946000099E0,1.829479159E1
1.239143199E0,-1.483199978E1,-8.460000038E0,3.421000004E0,1.741444972E1
1.244124504E0,-1.432600021E1,-7.635000229E0,2.546999931E0,1.643212461E1
1.249105966E0,-1.390900040E1,-6.867000103E0,1.417000055E0,1.557638827E1
1.254087204E0,-1.350199986E1,-6.204999924E0,2.389999926E-1,1.486146511E1
1.259068509E0,-1.309200001E1,-5.592000008E0,-9.760000110E-1,1.426967078E1
1.264049966E0,-1.251500034E1,-5.012000084E0,-2.368000031E0,1.368768799E1
1.269031276E0,-1.188599968E1,-4.619999886E0,-3.657000065E0,1.326631210E1
1.274012506E0,-1.094099998E1,-4.380000114E0,-4.731999874E0,1.269967340E1
1.278993981E0,-1.013700008E1,-4.021999836E0,-5.572999954E0,1.224718669E1
1.283975291E0,-9.513999939E0,-3.540999889E0,-6.094999790E0,1.184077267E1
1.288956521E0,-8.953000069E0,-2.910000086E0,-6.525000095E0,1.145425410E1
1.293937981E0,-8.296999931E0,-2.444999933E0,-6.894999981E0,1.106161187E1
1.298919257E0,-7.481999874E0,-2.303999901E0,-7.025000095E0,1.051852480E1
1.303900716E0,-6.683000088E0,-2.323999882E0,-6.846000195E0,9.845363593E0
1.308881949E0,-6.264999866E0,-2.292000055E0,-6.684999943E0,9.444189315E0
1.313863260E0,-6.491000175E0,-2.035000086E0,-6.125999928E0,9.154353267E0
1.318844721E0,-7.331999779E0,-1.595000029E0,-5.289999962E0,9.180759524E0
1.323826064E0,-8.342000008E0,-1.026000023E0,-4.547999859E0,9.556460793E0
1.328807295E0,-9.062000275E0,-6.330000162E-1,-4.024000168E0,9.935447416E0
1.333788754E0,-9.439999580E0,-7.239999771E-1,-3.806999922E0,1.020446062E1
1.338770059E0,-9.498000145E0,-1.118999958E0,-3.266999960E0,1.010630775E1
1.343751518E0,-9.399999619E0,-1.355999947E0,-1.930999994E0,9.691619558E0
1.348732751E0,-9.623999596E0,-1.057999969E0,-3.770000041E-1,9.689316857E0
1.353714067E0,-1.028400040E1,-5.120000243E-1,3.140000105E-1,1.030152436E1
1.358695300E0,-1.113700008E1,-7.800000161E-2,4.810000062E-1,1.114765517E1
1.363676836E0,-1.185200024E1,9.600000083E-2,3.149999976E-1,1.185657415E1
1.368658098E0,-1.226700020E1,7.199999690E-2,1.710000038E-1,1.226840327E1
1.373639558E0,-1.225800037E1,-1.040000021E-1,2.700000070E-2,1.225847128E1
1.378620862E0,-1.198099995E1,-1.420000046E-1,-2.939999998E-1,1.198544783E1
1.383602093E0,-1.169499969E1,7.900000364E-2,-7.570000291E-1,1.171974010E1
1.388583553E0,-1.128499985E1,3.289999962E-1,-1.476999998E0,1.138599980E1
1.393564790E0,-1.070600033E1,4.679999948E-1,-2.536999941E0,1.101244004E1
1.398546096E0,-1.052900028E1,6.990000010E-1,-3.661000013E0,1.116921524E1
1.403527572E0,-1.023099995E1,8.140000105E-1,-4.497000217E0,1.120530976E1
1.408508881E0,-1.022399998E1,1.080999970E0,-5.138999939E0,1.149382690E1
1.413490112E0,-1.036400032E1,1.235000014E0,-5.462999821E0,1.178058126E1
1.418471577E0,-1.060200024E1,1.123999953E0,-5.603000164E0,1.204406060E1
1.423452886E0,-1.119799995E1,1.009999990E0,-5.577000141E0,1.255062682E1
1.428434356E0,-1.227000046E1,1.042999983E0,-5.318999767E0,1.341389275E1
1.433415589E0,-1.371700001E1,1.136999965E0,-4.953999996E0,1.462843034E1
1.438396889E0,-1.540400028E1,1.353000045E0,-4.923999786E0,1.622835813E1
1.443378351E0,-1.710499954E1,1.608999968E0,-5.395999908E0,1.800796227E1
